2016-01-04,69.736,69.938,68.992,69.814,297609,0
2016-01-05,69.028,69.726,68.773,69.416,334287,0
2016-01-06,68.477,69.338,68.147,68.942,402513,0
2016-01-07,67.819,68.487,67.412,67.567,332067,0
2016-01-08,67.759,68.409,67.478,67.682,583372,0
2016-01-11,67.73,68.147,66.897,67.624,322126,0
2016-01-12,68.1,68.69,67.15,67.644,296007,0
2016-01-13,67.924,68.602,66.724,66.744,392582,0
2016-01-14,66.926,67.004,65.988,66.588,453388,0
2016-01-15,65.396,66.113,64.892,65.929,355519,0
2016-01-19,66.684,66.684,65.183,65.978,229003,0
2016-01-20,65.232,66.259,64.244,65.696,261186,0
2016-01-21,65.765,66.191,64.592,64.602,333584,0
2016-01-22,65.358,66.171,65.078,66.103,260827,0
2016-01-25,65.832,65.918,64.829,65.043,339681,0
2016-01-26,65.803,68.702,65.734,68.574,598498,0
2016-01-27,68.332,69.702,67.826,68.342,504822,0
2016-01-28,68.895,69.381,68.497,68.75,432603,0
2016-01-29,68.935,70.929,68.935,70.92,818312,0
2016-02-01,70.327,70.714,69.644,70.345,292682,0
2016-02-02,69.538,69.836,68.875,69.381,334843,0
2016-02-03,69.858,71.183,68.662,71.163,445158,0
2016-02-04,71.026,71.717,69.926,70.278,375848,0
2016-02-05,70.997,72.631,68.565,69.188,289755,0
2016-02-08,68.642,71.075,67.98,71.046,536587,0
2016-02-09,70.521,73.225,70.337,72.388,597423,0
2016-02-10,72.65,73.477,71.455,72.174,372708,0
2016-02-11,71.201,72.982,71.201,72.301,541770,0
2016-02-12,72.788,73.594,71.698,73.253,315282,0
2016-02-16,73.985,74.125,71.473,71.941,397573,0
2016-02-17,72.232,72.64,71.183,71.376,384665,0
2016-02-18,71.503,71.745,70.997,71.308,267652,0
2016-02-19,71.308,71.755,69.615,70.9,720273,0
2016-02-22,71.473,71.873,70.471,70.823,398214,0
2016-02-23,70.87,71.036,70.094,70.89,272346,0
2016-02-24,70.451,72.106,70.255,71.902,226318,0
2016-02-25,71.989,72.369,71.483,72.321,214563,0
2016-02-26,72.748,72.913,71.318,71.337,163894,0
2016-02-29,71.503,72.358,70.997,71.707,218978,0
2016-03-01,72.028,73.04,71.745,72.476,239615,0
2016-03-02,72.368,72.793,71.814,72.388,159150,0
2016-03-03,72.33,73.205,71.804,73.157,364371,0
2016-03-04,73.157,74.031,73.097,73.935,308006,0
2016-03-07,73.808,74.343,73.05,73.663,222184,0
2016-03-08,73.663,74.061,73.079,73.73,243411,0
2016-03-09,73.887,74.446,73.06,73.788,322065,0
2016-03-10,74.208,74.723,73.088,73.321,274100,0
2016-03-11,73.459,74.13,73.459,73.722,245906,0
2016-03-14,73.722,74.13,72.845,73.196,293973,0
2016-03-15,72.748,74.422,72.024,74.09,375480,0
2016-03-16,73.722,74.743,73.477,74.47,194121,0
2016-03-17,74.753,75.647,74.431,75.16,312833,0
2016-03-18,74.858,75.473,74.1,74.802,628836,0
2016-03-21,74.898,75.87,74.733,75.278,217962,0
2016-03-22,74.907,76.29,74.553,75.948,248242,0
2016-03-23,75.84,76.747,74.898,76.018,260320,0
2016-03-24,75.812,75.87,74.773,75.288,213397,0
2016-03-28,75.569,76.241,75.345,76.182,329221,0
2016-03-29,75.821,76.572,75.278,76.376,641869,0
2016-03-30,76.638,76.891,75.939,76.591,302414,0
2016-03-31,76.688,76.871,76.075,76.28,383868,0
2016-04-01,75.91,77.01,75.706,76.94,199367,0
2016-04-04,77.077,77.505,76.572,76.767,181928,0
2016-04-05,76.192,76.638,75.393,75.627,224797,0
2016-04-06,75.627,76.065,74.576,75.86,257268,0
2016-04-07,75.531,75.531,74.773,75.249,225217,0
2016-04-08,75.735,75.735,74.947,75.259,183600,0
2016-04-11,75.85,76.046,75.062,75.259,176556,0
2016-04-12,75.364,75.587,74.878,75.483,206623,0
2016-04-13,75.91,76.103,74.782,76.065,177312,0
2016-04-14,76.231,76.435,75.856,76.318,217811,0
2016-04-15,76.29,77.144,76.037,77.097,253851,0
2016-04-18,76.853,77.496,76.786,77.466,227285,0
2016-04-19,77.728,78.139,77.107,77.291,313360,0
2016-04-20,77.554,77.758,77.01,77.604,194153,0
2016-04-21,77.446,77.856,76.299,76.445,224741,0
2016-04-22,76.484,77.622,76.484,77.515,245221,0
2016-04-25,77.085,77.554,76.899,77.162,273216,0
2016-04-26,77.456,78.121,76.889,78.052,240047,0
2016-04-27,78.013,78.471,77.67,78.081,310542,0
2016-04-28,77.877,78.434,77.143,77.426,589438,0
2016-04-29,75.405,76.128,73.931,74.215,796541,0
2016-05-02,73.999,75.513,73.873,75.044,490450,0
2016-05-03,74.594,74.702,73.823,73.971,856362,0
2016-05-04,73.481,74.117,73.248,73.784,587966,0
2016-05-05,73.765,74.683,73.354,74.273,314600,0
2016-05-06,74.215,74.752,73.941,74.488,227718,0
2016-05-09,74.38,75.011,73.878,74.752,374506,0
2016-05-10,74.927,75.485,74.517,75.269,201289,0
2016-05-11,75.26,75.844,74.878,75.026,257910,0
2016-05-12,75.504,76.148,75.264,75.805,225142,0
2016-05-13,75.523,75.523,74.712,75.161,208145,0
2016-05-16,75.269,75.962,74.829,75.58,174001,0
2016-05-17,75.445,75.6,73.472,73.628,457933,0
2016-05-18,73.354,74.302,73.068,73.481,345506,0
2016-05-19,73.004,73.707,72.416,73.09,259283,0
2016-05-20,73.541,73.999,73.203,73.56,309205,0
2016-05-23,73.717,73.853,72.974,73.033,225783,0
2016-05-24,73.472,74.762,73.384,74.585,264099,0
2016-05-25,74.557,75.054,74.292,74.557,177592,0
2016-05-26,74.722,74.957,74.175,74.634,143661,0
2016-05-27,74.722,75.376,74.39,75.327,252412,0
2016-05-31,75.405,75.718,75.026,75.445,274091,0
2016-06-01,75.054,75.395,74.282,75.395,199276,0
2016-06-02,75.337,75.533,74.986,75.533,227960,0
2016-06-03,75.748,75.962,75.131,75.386,148657,0
2016-06-06,75.494,76.197,74.986,75.279,189200,0
2016-06-07,75.221,76.079,75.221,75.67,174196,0
2016-06-08,75.768,76.705,75.307,75.894,131194,0
2016-06-09,75.58,76.041,75.366,75.962,126414,0
2016-06-10,75.58,76.362,75.58,76.362,281571,0
2016-06-13,75.924,76.246,74.819,74.976,268084,0
2016-06-14,75.026,75.151,74.312,74.644,252005,0
2016-06-15,74.702,75.151,74.273,74.527,218395,0
2016-06-16,74.273,75.131,73.883,74.702,292235,0
2016-06-17,74.43,74.801,74.008,74.557,359741,0
2016-06-20,75.366,76.148,75.366,75.797,144395,0
2016-06-21,75.797,76.381,75.65,75.854,218514,0
2016-06-22,76.079,76.471,75.797,76.471,166808,0
2016-06-23,77.222,78.257,77.222,78.257,377704,0
2016-06-24,75.386,76.265,74.742,74.947,472698,0
2016-06-27,74.146,74.185,72.526,72.847,335941,0
2016-06-28,73.14,73.912,72.78,73.912,221899,0
2016-06-29,74.752,75.141,74.165,74.917,202737,0
2016-06-30,75.151,77.291,74.959,77.272,405432,0
2016-07-01,77.133,77.857,76.655,77.31,173451,0
2016-07-05,76.998,77.242,75.972,76.869,211995,0
2016-07-06,76.812,76.968,76.138,76.889,196880,0
2016-07-07,77.038,77.466,76.441,76.645,159440,0
2016-07-08,77.406,77.973,77.242,77.915,135437,0
2016-07-11,78.198,78.579,78.003,78.315,148006,0
2016-07-12,78.852,79.264,78.471,78.52,147285,0
2016-07-13,78.872,79.018,78.198,78.345,192574,0
2016-07-14,78.902,79.096,77.983,78.305,137290,0
2016-07-15,78.227,78.736,78.042,78.042,168443,0
2016-07-18,78.042,78.648,77.71,78.033,95679,0
2016-07-19,77.983,78.207,77.359,77.749,89238,0
2016-07-20,77.69,78.823,77.69,78.414,195779,0
2016-07-21,78.178,78.678,77.857,78.061,135679,0
2016-07-22,78.042,78.892,78.033,78.569,144282,0
2016-07-25,78.452,78.804,78.216,78.364,239779,0
2016-07-26,78.294,79.118,78.294,78.708,188920,0
2016-07-27,79.138,79.138,77.707,78.139,327797,0
2016-07-28,78.129,78.403,77.402,77.805,243942,0
2016-07-29,78.334,79.882,75.575,76.628,745244,0
2016-08-01,76.589,76.589,75.473,75.804,308772,0
2016-08-02,75.698,75.698,74.433,75.09,414832,0
2016-08-03,75.188,75.443,74.737,75.1,217861,0
2016-08-04,75.218,75.952,75.022,75.257,175264,0
2016-08-05,75.767,75.786,74.933,75.07,222336,0
2016-08-08,75.188,76.049,74.482,74.659,188848,0
2016-08-09,74.747,75.075,74.218,74.472,156112,0
2016-08-10,74.56,74.815,74.335,74.707,135655,0
2016-08-11,75.06,75.335,74.365,74.59,188853,0
2016-08-12,74.482,74.59,73.855,74.08,101166,0
2016-08-15,74.365,74.57,73.983,74.002,105048,0
2016-08-16,74.09,74.14,73.59,73.669,190003,0
2016-08-17,73.727,74.315,73.522,74.286,183048,0
2016-08-18,74.296,75.305,74.12,75.305,225350,0
2016-08-19,74.943,75.463,74.727,75.257,213671,0
2016-08-22,75.247,75.688,74.884,75.57,147486,0
2016-08-23,75.874,76.383,75.737,75.804,318736,0
2016-08-24,75.688,76.198,75.688,76.041,189671,0
2016-08-25,75.894,76.982,75.894,76.521,223909,0
2016-08-26,76.502,77.501,76.502,76.913,383831,0
2016-08-29,76.942,77.492,76.942,77.217,166731,0
2016-08-30,77.217,77.55,77.032,77.128,202890,0
2016-08-31,76.982,77.227,76.413,76.433,285367,0
2016-09-01,76.57,76.747,75.952,76.423,214110,0
2016-09-02,76.913,77.61,76.55,77.59,258076,0
2016-09-06,77.864,78.226,77.354,77.884,242508,0
2016-09-07,77.61,78.775,77.61,78.698,322551,0
2016-09-08,78.923,78.953,77.6,77.638,286796,0
2016-09-09,77.335,77.335,75.894,75.924,333897,0
2016-09-12,75.473,77.002,75.473,76.952,185768,0
2016-09-13,76.531,76.815,75.609,76.002,252116,0
2016-09-14,75.952,76.218,75.526,75.834,153007,0
2016-09-15,75.767,76.443,75.727,76.354,165911,0
2016-09-16,75.824,76.463,75.824,76.059,316585,0
2016-09-19,76.354,77.237,76.344,77.051,237951,0
2016-09-20,77.531,77.83,77.138,77.157,286638,0
2016-09-21,77.247,77.247,76.296,76.863,421605,0
2016-09-22,77.492,77.932,76.805,77.884,286935,0
2016-09-23,77.6,77.913,77.051,77.227,160294,0
2016-09-26,77.128,77.402,76.482,76.511,294914,0
2016-09-27,75.824,76.589,75.824,76.198,644143,0
2016-09-28,76.805,77.089,76.069,77.051,216180,0
2016-09-29,76.727,77.012,75.546,75.678,178622,0
2016-09-30,75.824,76.374,75.443,75.874,415524,0
2016-10-03,75.541,75.904,75.08,75.824,307630,0
2016-10-04,75.708,76.135,74.492,74.59,247593,0
2016-10-05,74.943,75.07,74.424,74.599,193538,0
2016-10-06,74.59,75.148,74.258,75.119,156578,0
2016-10-07,75.138,75.143,73.698,74.14,285175,0
2016-10-10,74.532,75.002,74.178,74.443,118725,0
2016-10-11,74.12,74.218,73.072,73.58,156093,0
2016-10-12,74.061,74.306,73.615,74.159,143719,0
2016-10-13,73.297,74.688,73.099,74.09,215487,0
2016-10-14,74.12,74.807,74.07,74.522,180398,0
2016-10-17,74.512,74.953,74.502,74.688,83104,0
2016-10-18,75.257,75.473,74.472,74.874,115213,0
2016-10-19,74.767,75.257,74.532,74.963,99866,0
2016-10-20,74.609,75.276,73.894,74.462,224132,0
2016-10-21,74.717,75.874,74.369,75.629,188180,0
2016-10-24,76.55,76.55,75.032,75.473,153892,0
2016-10-25,75.473,75.609,74.678,75.473,190916,0
2016-10-26,75.296,75.659,74.688,74.757,182877,0
2016-10-27,74.874,74.874,74.105,74.767,178145,0
2016-10-28,73.62,74.482,71.14,71.571,474108,0
2016-10-31,71.797,72.743,69.78,70.332,655074,0
2016-11-01,70.694,70.734,69.229,69.524,350944,0
2016-11-02,69.484,70.428,69.336,69.82,271608,0
2016-11-03,69.75,70.351,69.544,69.77,221885,0
2016-11-04,70.006,70.784,69.877,70.302,239222,0
2016-11-07,71.444,73.195,71.168,73.175,465909,0
2016-11-08,73.126,74.889,72.899,74.563,514663,0
2016-11-09,73.747,74.889,73.372,73.944,318360,0
2016-11-10,74.427,74.427,70.162,70.322,646176,0
2016-11-11,70.252,71.01,69.651,70.734,321911,0
2016-11-14,71.523,72.398,71.168,72.368,312863,0
2016-11-15,72.338,72.653,71.856,72.241,193349,0
2016-11-16,72.487,72.576,71.778,72.427,208676,0
2016-11-17,72.437,73.106,71.665,72.437,210787,0
2016-11-18,72.28,72.615,71.738,72.507,233485,0
2016-11-21,72.556,73.106,72.201,73.087,185507,0
2016-11-22,73.442,74.475,72.813,74.317,459585,0
2016-11-23,74.003,75.066,74.003,74.869,197289,0
2016-11-25,74.859,75.47,74.573,74.889,125551,0
2016-11-28,74.918,76.079,74.839,75.283,352121,0
2016-11-29,75.361,75.667,73.638,74.505,332640,0
2016-11-30,74.839,74.869,72.034,72.044,327885,0
2016-12-01,72.063,73.185,71.335,72.929,474949,0
2016-12-02,72.899,73.392,72.457,73.195,394182,0
2016-12-05,73.678,73.964,72.024,72.241,356508,0
2016-12-06,72.172,72.713,71.965,72.653,363157,0
2016-12-07,70.724,72.773,70.724,72.338,588469,0
2016-12-08,72.348,73.432,72.348,73.049,415553,0
2016-12-09,73.451,74.012,73.126,73.589,395367,0
2016-12-12,73.688,73.984,72.999,73.451,281161,0
2016-12-13,73.737,74.427,73.156,73.215,275129,0
2016-12-14,73.412,73.806,71.827,71.916,349372,0
2016-12-15,72.182,72.576,71.7,71.827,351612,0
2016-12-16,72.082,72.261,71.6,71.797,676331,0
2016-12-19,72.054,72.88,71.65,72.653,284892,0
2016-12-20,72.507,72.909,72.261,72.831,273633,0
2016-12-21,72.723,73.009,72.201,72.221,283921,0
2016-12-22,72.358,72.358,71.454,71.886,296419,0
2016-12-23,71.73,72.779,71.73,72.467,164073,0
2016-12-27,72.663,73.412,72.31,73.019,205047,0
2016-12-28,72.899,73.531,72.427,72.576,194251,0
2016-12-29,72.497,72.969,72.182,72.546,141663,0
2016-12-30,72.585,72.87,72.112,72.31,244060,0
2017-01-03,73.106,73.106,71.226,71.886,341597,0
2017-01-04,71.787,73.56,71.787,73.078,426198,0
2017-01-05,72.576,73.255,72.092,72.329,362320,0
2017-01-06,72.388,72.822,71.936,72.358,287607,0
2017-01-09,72.358,73.255,71.946,72.537,380042,0
2017-01-10,72.191,72.447,71.665,71.69,164035,0
2017-01-11,71.896,72.221,71.65,71.906,196207,0
2017-01-12,72.014,72.615,71.236,72.191,187211,0
2017-01-13,72.172,72.673,71.896,72.358,191858,0
2017-01-17,71.748,72.683,71.73,72.201,274510,0
2017-01-18,72.28,72.653,71.886,72.338,265075,0
2017-01-19,72.497,72.551,71.335,71.6,380601,0
2017-01-20,71.246,71.384,70.438,70.528,352769,0
2017-01-23,70.764,71.404,70.332,71.325,390743,0
2017-01-24,71.66,72.703,71.66,72.398,271007,0
2017-01-25,72.221,72.793,72.005,72.29,271780,0
2017-01-26,72.251,72.534,71.335,72.182,279856,0
2017-01-27,72.261,72.348,71.778,72.3,325451,0
2017-01-30,72.251,72.615,71.291,71.924,346130,0
2017-01-31,72.053,72.488,71.479,72.151,677102,0
2017-02-01,72.468,73.219,72.231,73.11,451971,0
2017-02-02,72.972,72.972,72.191,72.508,329698,0
2017-02-03,72.942,73.299,72.675,72.952,281386,0
2017-02-06,72.705,73.189,72.3,72.528,257413,0
2017-02-07,72.518,72.644,71.834,71.914,364977,0
2017-02-08,71.805,72.873,71.627,72.725,401856,0
2017-02-09,72.547,73.11,72.338,72.745,442966,0
2017-02-10,73.377,75.345,73.377,73.951,1173239,0
2017-02-13,74.376,74.593,73.526,73.595,445002,0
2017-02-14,73.566,73.566,72.893,73.002,436867,0
2017-02-15,73.002,73.089,72.043,72.378,528780,0
2017-02-16,72.576,73.397,72.576,73.367,270014,0
2017-02-17,73.585,73.714,72.65,73.072,322244,0
2017-02-21,73.081,73.822,73.032,73.753,190868,0
2017-02-22,73.506,73.971,73.11,73.427,206831,0
2017-02-23,73.634,73.724,73.209,73.289,253442,0
2017-02-24,72.952,73.654,72.815,73.526,235092,0
2017-02-27,73.269,74.173,73.269,73.644,254666,0
2017-02-28,73.437,73.813,73.12,73.674,394689,0
2017-03-01,74.366,75.32,74.079,75.207,375209,0
2017-03-02,74.84,75.217,74.613,74.96,331424,0
2017-03-03,74.683,75.385,74.683,75.187,301781,0
2017-03-06,74.623,75.237,74.623,74.802,305556,0
2017-03-07,74.693,75.088,74.336,74.623,457800,0
2017-03-08,74.435,75.207,74.435,75.088,440575,0
2017-03-09,75.029,75.622,74.742,74.999,345157,0
2017-03-10,75.266,76.136,74.95,75.929,440495,0
2017-03-13,75.939,76.136,75.305,75.889,225174,0
2017-03-14,74.782,76.156,74.505,75.671,269082,0
2017-03-15,76.056,76.818,75.973,76.373,228371,0
2017-03-16,76.433,76.66,75.829,76.116,188864,0
2017-03-17,76.038,76.373,75.731,76.216,409714,0
2017-03-20,76.304,76.997,75.889,76.967,250451,0
2017-03-21,76.848,76.952,75.771,75.909,324996,0
2017-03-22,75.8,76.216,75.647,75.988,132106,0
2017-03-23,75.968,76.867,75.464,76.295,138115,0
2017-03-24,76.323,76.78,75.474,75.761,156090,0
2017-03-27,74.96,75.899,74.96,75.761,259080,0
2017-03-28,75.553,76.413,75.474,76.206,240444,0
2017-03-29,76.245,76.245,75.632,76.176,130802,0
2017-03-30,76.126,76.512,75.701,75.998,143483,0
2017-03-31,76.038,76.413,75.562,76.126,199474,0
2017-04-03,76.076,76.59,75.35,75.592,429686,0
2017-04-04,75.642,76.038,75.098,75.879,322504,0
2017-04-05,76.176,76.176,75.167,75.227,377020,0
2017-04-06,75.088,75.681,74.643,75.671,297021,0
2017-04-07,75.632,75.929,75.167,75.305,217235,0
2017-04-10,75.088,76.086,75.068,76.028,245228,0
2017-04-11,75.741,76.106,75.557,76.056,266741,0
2017-04-12,76.028,76.056,75.187,75.375,239451,0
2017-04-13,75.197,75.731,74.908,74.95,166715,0
2017-04-17,75.177,76.433,75.029,76.403,223184,0
2017-04-18,76.176,76.808,76.076,76.7,199033,0
2017-04-19,76.997,77.056,76.64,76.68,267852,0
2017-04-20,76.086,77.441,76.086,76.947,358359,0
2017-04-21,77.303,77.758,76.235,77.115,187317,0
2017-04-24,78.084,78.084,76.848,77.421,253778,0
2017-04-25,77.471,78.282,76.75,77.847,293783,0
2017-04-26,78.034,78.608,77.807,78.45,346910,0
2017-04-27,78.311,78.708,77.545,77.906,240308,0
2017-04-28,79.102,79.626,77.872,79.399,645249,0
2017-05-01,79.499,80.015,78.636,79.151,981728,0
2017-05-02,78.773,80.094,78.317,79.617,454165,0
2017-05-03,79.309,80.075,78.923,79.865,387267,0
2017-05-04,79.915,81.127,79.91,80.799,492327,0
2017-05-05,80.809,81.573,80.729,81.315,416453,0
2017-05-08,81.484,82.01,81.127,81.911,377214,0
2017-05-09,82.01,82.337,81.513,81.881,304843,0
2017-05-10,81.653,82.437,81.653,82.268,310493,0
2017-05-11,81.891,82.318,81.225,81.931,313753,0
2017-05-12,81.851,82.219,81.643,81.831,229225,0
2017-05-15,81.831,82.377,81.593,82.03,213559,0
2017-05-16,81.98,82.199,81.633,82.189,212465,0
2017-05-17,81.454,82.159,81.255,81.683,268472,0
2017-05-18,81.653,81.801,80.531,81.543,328056,0
2017-05-19,81.593,81.911,81.225,81.762,334318,0
2017-05-22,81.653,82.377,81.454,82.238,240199,0
2017-05-23,82.397,83.052,82.367,82.586,205750,0
2017-05-24,82.586,82.913,82.199,82.784,188741,0
2017-05-25,83.013,83.668,82.655,83.539,204707,0
2017-05-26,83.539,84.015,83.449,83.757,159463,0
2017-05-30,83.519,84.025,83.191,83.926,226039,0
2017-05-31,84.561,84.561,83.807,84.392,287453,0
2017-06-01,84.631,85.683,84.392,85.634,274633,0
2017-06-02,85.772,86.1,85.108,85.703,172049,0
2017-06-05,85.474,86.458,85.157,85.226,239370,0
2017-06-06,85.206,85.206,84.442,84.859,345139,0
2017-06-07,84.492,85.296,84.442,85.068,369380,0
2017-06-08,85.157,85.366,84.244,84.631,186304,0
2017-06-09,84.68,85.177,84.561,85.028,191354,0
2017-06-12,84.621,85.356,84.254,84.82,240729,0
2017-06-13,85.236,85.554,84.859,85.554,179984,0
2017-06-14,85.415,86.14,85.415,85.624,213803,0
2017-06-15,84.899,85.664,84.283,85.604,201638,0
2017-06-16,85.376,85.733,84.83,85.326,454141,0
2017-06-19,85.693,86.24,85.306,86.12,167810,0
2017-06-20,86.318,86.546,86.02,86.259,242060,0
2017-06-21,86.288,87.297,85.922,86.368,187303,0
2017-06-22,86.328,86.726,85.782,86.19,167579,0
2017-06-23,86.2,87.044,85.703,86.17,477725,0
2017-06-26,86.338,86.954,85.981,86.507,309348,0
2017-06-27,86.368,86.874,85.713,85.742,189410,0
2017-06-28,86.328,86.736,85.644,86.298,170801,0
2017-06-29,86.239,86.498,85.152,85.862,197601,0
2017-06-30,86.298,86.696,86.135,86.229,240234,0
2017-07-03,86.576,87.034,86.259,86.448,119659,0
2017-07-05,86.318,86.864,85.812,86.656,245691,0
2017-07-06,86.2,87.102,86.06,86.676,396950,0
2017-07-07,87.054,87.906,86.507,87.45,246970,0
2017-07-10,87.312,88.424,86.844,87.658,248954,0
2017-07-11,87.55,87.936,87.114,87.53,182378,0
2017-07-12,88.214,88.672,87.788,88.334,143480,0
2017-07-13,88.424,88.622,87.152,87.986,280681,0
2017-07-14,88.472,89.316,88.274,88.78,308105,0
2017-07-17,88.85,89.316,88.582,89.138,301501,0
2017-07-18,88.75,89.754,88.433,89.088,280664,0
2017-07-19,89.664,90.13,89.028,89.436,398159,0
2017-07-20,89.614,89.823,88.88,89.048,300448,0
2017-07-21,89.336,89.336,88.354,88.86,273522,0
2017-07-24,88.611,89.258,88.262,89.129,391653,0
2017-07-25,89.627,89.627,88.187,88.362,599039,0
2017-07-26,88.451,88.641,87.664,87.734,318975,0
2017-07-27,88.172,88.172,86.937,87.674,330174,0
2017-07-28,83.091,83.39,80.531,82.005,917343,0
2017-07-31,81.936,83.191,80.391,80.63,967763,0
2017-08-01,80.7,82.484,80.68,82.205,465095,0
2017-08-02,82.235,82.444,80.929,81.946,349904,0
2017-08-03,81.995,82.115,81.517,81.946,323385,0
2017-08-04,82.195,82.474,81.866,82.055,168794,0
2017-08-07,82.244,82.643,82.085,82.434,172798,0
2017-08-08,82.324,82.623,82.095,82.434,163923,0
2017-08-09,82.195,82.494,81.936,82.175,189631,0
2017-08-10,81.926,82.434,81.178,81.208,266305,0
2017-08-11,82.045,82.045,81.104,81.836,215019,0
2017-08-14,82.324,82.693,82.205,82.603,147820,0
2017-08-15,82.434,82.693,82.244,82.444,191628,0
2017-08-16,82.553,83.52,82.394,83.241,249729,0
2017-08-17,82.962,83.211,81.816,81.826,222479,0
2017-08-18,81.706,81.995,81.339,81.846,191692,0
2017-08-21,81.756,82.175,81.039,81.188,126732,0
2017-08-22,81.677,81.985,81.428,81.816,190773,0
2017-08-23,81.447,82.225,81.188,81.308,181220,0
2017-08-24,81.428,81.756,80.65,80.78,180724,0
2017-08-25,81.198,82.424,81.198,82.085,331434,0
2017-08-28,82.344,82.474,81.188,81.557,242503,0
2017-08-29,81.597,81.796,81.268,81.697,227129,0
2017-08-30,81.836,82.872,81.597,82.663,208898,0
2017-08-31,82.872,83.35,82.414,83.301,268372,0
2017-09-01,83.49,83.689,83.111,83.57,183722,0
2017-09-05,83.41,83.858,82.872,82.942,193189,0
2017-09-06,83.022,83.022,82.185,82.543,241758,0
2017-09-07,82.653,83.43,82.015,83.301,241949,0
2017-09-08,83.191,83.868,82.464,83.51,208478,0
2017-09-11,84.008,84.855,83.689,84.805,210578,0
2017-09-12,84.616,85.124,84.396,84.885,215323,0
2017-09-13,84.297,84.725,84.058,84.187,230377,0
2017-09-14,84.197,84.785,83.849,84.556,166944,0
2017-09-15,84.426,84.636,84.167,84.396,401267,0
2017-09-18,84.656,85.353,84.426,85.124,199403,0
2017-09-19,85.114,85.443,84.636,85.243,261319,0
2017-09-20,85.343,85.921,85.323,85.801,167931,0
2017-09-21,85.761,86.439,85.55,85.831,200321,0
2017-09-22,85.881,85.951,85.134,85.403,190192,0
2017-09-25,85.433,86.568,85.034,86.439,223666,0
2017-09-26,86.778,86.997,86.13,86.429,200485,0
2017-09-27,86.479,86.608,85.891,86.22,273953,0
2017-09-28,86.04,87.186,85.771,86.758,229092,0
2017-09-29,86.698,86.807,85.981,85.991,221547,0
2017-10-02,86.489,87.644,86.22,87.555,264932,0
2017-10-03,87.575,88.113,87.57,88.103,203076,0
2017-10-04,87.933,88.521,87.595,87.814,232521,0
2017-10-05,88.182,88.402,87.296,87.814,179580,0
2017-10-06,87.714,88.302,87.576,88.252,163406,0
2017-10-09,88.352,88.461,88.003,88.133,139950,0
2017-10-10,88.272,88.541,87.893,88.143,187677,0
2017-10-11,88.153,88.471,87.864,88.033,163115,0
2017-10-12,88.172,88.382,87.893,88.162,168686,0
2017-10-13,88.362,89.039,88.362,88.511,187827,0
2017-10-16,88.591,88.611,87.644,88.611,236902,0
2017-10-17,88.969,88.969,88.382,88.651,175996,0
2017-10-18,88.402,89.039,87.993,88.272,208400,0
2017-10-19,88.182,88.501,88.023,88.312,152686,0
2017-10-20,88.9,88.979,88.372,88.87,125518,0
2017-10-23,88.83,89.343,88.591,88.7,420499,0
2017-10-24,88.73,89.301,88.501,88.79,189954,0
2017-10-25,88.74,89.139,87.365,88.162,202631,0
2017-10-26,88.481,88.91,88.272,88.611,235603,0
2017-10-27,89.069,89.069,85.572,87.605,533652,0
2017-10-30,87.136,87.266,85.931,86.14,261444,0
2017-10-31,86.25,87.3,86.12,87.07,474897,0
2017-11-01,87.83,88.12,87.21,87.41,279320,0
2017-11-02,87.09,87.37,86.32,86.6,259249,0
2017-11-03,86.6,87.18,86.6,86.94,215968,0
2017-11-06,87.02,87.08,85.68,85.85,271752,0
2017-11-07,85.85,85.89,85.385,85.72,326994,0
2017-11-08,85.68,86.6,85.64,85.73,271415,0
2017-11-09,85.2,85.42,84.32,84.76,146660,0
2017-11-10,84.35,85.11,84.22,84.91,195792,0
